tau,C(tau)
0,1.20318
0.05,1.15769
0.1,1.12112
0.15,1.08805
0.2,1.05592
0.25,1.02215
0.3,0.993167
0.35,0.966314
0.4,0.938296
0.45,0.910896
0.5,0.887474
0.55,0.868842
0.6,0.8485
0.65,0.822566
0.7,0.798694
0.75,0.771764
0.8,0.746626
0.85,0.720168
0.9,0.699346
0.95,0.679027
1,0.663645
1.05,0.640975
1.1,0.625578
1.15,0.60985
1.2,0.590168
1.25,0.571412
1.3,0.550995
1.35,0.530966
1.4,0.508017
1.45,0.488358
1.5,0.465571
1.55,0.441148
1.6,0.412211
1.65,0.387164
1.7,0.36754
1.75,0.343873
1.8,0.325832
1.85,0.306672
1.9,0.28729
1.95,0.266181
2,0.252574
2.05,0.236625
2.1,0.215257
2.15,0.194345
2.2,0.171275
2.25,0.149085
2.3,0.124032
2.35,0.103948
2.4,0.0840218
2.45,0.0669735
2.5,0.0467971
2.55,0.0319426
2.6,0.0181462
2.65,0.00368914
2.7,-0.0142548
2.75,-0.0320297
2.8,-0.0490273
2.85,-0.0711076
2.9,-0.0865926
2.95,-0.101123
3,-0.11184
3.05,-0.123123
3.1,-0.137343
3.15,-0.141327
3.2,-0.151189
3.25,-0.160906
3.3,-0.172401
3.35,-0.180479
3.4,-0.19238
3.45,-0.205338
3.5,-0.219628
3.55,-0.233735
3.6,-0.252729
3.65,-0.267106
3.7,-0.27882
3.75,-0.289124
3.8,-0.295857
3.85,-0.300051
3.9,-0.306947
3.95,-0.317681
4,-0.326074
4.05,-0.335623
4.1,-0.349974
4.15,-0.360287
4.2,-0.375789
4.25,-0.38883
4.3,-0.408244
4.35,-0.42228
4.4,-0.439179
4.45,-0.450096
4.5,-0.460037
4.55,-0.46677
4.6,-0.471208
4.65,-0.475358
4.7,-0.478053
4.75,-0.480584
4.8,-0.485594
4.85,-0.494805
4.9,-0.50407
4.95,-0.511348
5,-0.515869
5.05,-0.516854
5.1,-0.51717
5.15,-0.516213
5.2,-0.516265
5.25,-0.510165
5.3,-0.507871
5.35,-0.500795
5.4,-0.496477
5.45,-0.498002
5.5,-0.501383
5.55,-0.502744
5.6,-0.504672
5.65,-0.512472
5.7,-0.513032
5.75,-0.51738
5.8,-0.519006
5.85,-0.523939
5.9,-0.524454
5.95,-0.524658
6,-0.524592
6.05,-0.520416
6.1,-0.516541
6.15,-0.512314
6.2,-0.511184
6.25,-0.511895
6.3,-0.508796
6.35,-0.50318
6.4,-0.494874
6.45,-0.482124
6.5,-0.467994
6.55,-0.452858
6.6,-0.433383
6.65,-0.417338
6.7,-0.40209
6.75,-0.391001
6.8,-0.374586
6.85,-0.363339
6.9,-0.351299
6.95,-0.345187
7,-0.34031
7.05,-0.332458
7.1,-0.322659
7.15,-0.306895
7.2,-0.298784
7.25,-0.287696
7.3,-0.274403
7.35,-0.263618
7.4,-0.254922
7.45,-0.24637
7.5,-0.240276
7.55,-0.237213
7.6,-0.230449
7.65,-0.228496
7.7,-0.218958
7.75,-0.210513
7.8,-0.202377
7.85,-0.191444
7.9,-0.178057
7.95,-0.163802
8,-0.148253
8.05,-0.130157
8.1,-0.114912
8.15,-0.0969515
8.2,-0.088372
8.25,-0.0798409
8.3,-0.0714197
8.35,-0.0649835
8.4,-0.05538
8.45,-0.0451295
8.5,-0.0315961
8.55,-0.0205163
8.6,0.000422906
8.65,0.0142721
8.7,0.0300619
8.75,0.0430654
8.8,0.0543776
8.85,0.071379
8.9,0.0763792
8.95,0.0848427
9,0.0888119
9.05,0.0919326
9.1,0.0939273
9.15,0.0997331
9.2,0.103441
9.25,0.10675
9.3,0.110135
9.35,0.11667
9.4,0.121817
9.45,0.127713
9.5,0.133651
9.55,0.141484
9.6,0.145124
9.65,0.139725
9.7,0.133519
9.75,0.131043
9.8,0.128453
9.85,0.134833
9.9,0.135844
9.95,0.143983
10,0.146808
10.05,0.154366
10.1,0.160066
10.15,0.16906
10.2,0.175183
10.25,0.181652
10.3,0.190062
10.35,0.202122
10.4,0.212803
10.45,0.224193
10.5,0.238898
10.55,0.252951
10.6,0.263322
10.65,0.278961
10.7,0.290141
10.75,0.301128
10.8,0.30445
10.85,0.313737
10.9,0.318767
10.95,0.325046
11,0.327566
11.05,0.332556
11.1,0.336552
11.15,0.345763
11.2,0.352391
11.25,0.354793
11.3,0.35984
11.35,0.36174
11.4,0.363361
11.45,0.366366
11.5,0.371384
11.55,0.371458
11.6,0.373305
11.65,0.374076
11.7,0.37389
11.75,0.378446
11.8,0.379431
11.85,0.383088
11.9,0.391591
11.95,0.394763
12,0.400196
12.05,0.403816
12.1,0.40521
12.15,0.406698
12.2,0.407031
12.25,0.401453
12.3,0.393417
12.35,0.380488
12.4,0.370431
12.45,0.359975
12.5,0.356417
12.55,0.349186
12.6,0.347461
12.65,0.344096
12.7,0.338926
12.75,0.337183
12.8,0.328914
12.85,0.325091
12.9,0.320526
12.95,0.308714
13,0.299978
13.05,0.289661
13.1,0.276041
13.15,0.262617
13.2,0.252355
13.25,0.243023
13.3,0.237167
13.35,0.228486
13.4,0.222601
13.45,0.21489
13.5,0.207855
13.55,0.195943
13.6,0.186517
13.65,0.174474
13.7,0.163539
13.75,0.154886
13.8,0.145113
13.85,0.133157
13.9,0.122509
13.95,0.115058
14,0.107671
14.05,0.097843
14.1,0.0885967
14.15,0.0769034
14.2,0.0706264
14.25,0.062354
14.3,0.0558276
14.35,0.0451834
14.4,0.0332446
14.45,0.0150093
14.5,-0.00051866
14.55,-0.0180276
14.6,-0.029975
14.65,-0.0405031
14.7,-0.0507358
14.75,-0.0612017
14.8,-0.0774255
14.85,-0.09216
14.9,-0.103168
14.95,-0.113539
15,-0.125407
15.05,-0.137669
15.1,-0.153422
15.15,-0.174083
15.2,-0.188746
15.25,-0.20064
15.3,-0.205073
15.35,-0.215384
15.4,-0.222364
15.45,-0.226349
15.5,-0.22783
15.55,-0.232241
15.6,-0.240827
15.65,-0.242549
15.7,-0.250144
15.75,-0.254185
15.8,-0.263001
15.85,-0.269177
15.9,-0.275041
15.95,-0.273682
16,-0.268372
16.05,-0.260464
16.1,-0.252673
16.15,-0.24887
16.2,-0.245401
16.25,-0.243473
16.3,-0.238479
16.35,-0.238027
16.4,-0.240284
16.45,-0.238214
16.5,-0.237992
16.55,-0.238752
16.6,-0.241912
16.65,-0.244469
16.7,-0.249468
16.75,-0.249576
16.8,-0.256837
16.85,-0.261842
16.9,-0.266905
16.95,-0.272066
17,-0.274516
17.05,-0.280396
17.1,-0.282654
17.15,-0.284189
17.2,-0.286908
17.25,-0.285353
17.3,-0.276966
17.35,-0.269745
17.4,-0.267686
17.45,-0.256383
17.5,-0.248134
17.55,-0.239248
17.6,-0.236991
17.65,-0.229227
17.7,-0.223275
17.75,-0.218362
17.8,-0.21642
17.85,-0.215951
17.9,-0.216232
17.95,-0.218494
18,-0.216247
18.05,-0.210345
18.1,-0.203096
18.15,-0.196844
18.2,-0.192973
18.25,-0.182735
18.3,-0.173432
18.35,-0.167659
18.4,-0.161118
18.45,-0.148093
18.5,-0.138314
18.55,-0.127497
18.6,-0.113761
18.65,-0.0985256
18.7,-0.0846477
18.75,-0.0716862
18.8,-0.0587793
18.85,-0.0468586
18.9,-0.0318837
18.95,-0.020569
19,-0.010044
19.05,-1.19039e-05
19.1,0.0103732
19.15,0.0155491
19.2,0.0197057
19.25,0.0206881
19.3,0.0209416
19.35,0.0247576
19.4,0.0298588
19.45,0.03712
19.5,0.0473608
19.55,0.0528687
19.6,0.0595903
19.65,0.0656889
19.7,0.0673724
19.75,0.0661586
19.8,0.0680743
19.85,0.0616377
19.9,0.0603065
19.95,0.0566131
20,0.0570935
20.05,0.0566131
20.1,0.0603065
20.15,0.0616377
20.2,0.0680743
20.25,0.0661586
20.3,0.0673724
20.35,0.0656889
20.4,0.0595903
20.45,0.0528687
20.5,0.0473608
20.55,0.03712
20.6,0.0298588
20.65,0.0247576
20.7,0.0209416
20.75,0.0206881
20.8,0.0197057
20.85,0.0155491
20.9,0.0103732
20.95,-1.19039e-05
21,-0.010044
21.05,-0.020569
21.1,-0.0318837
21.15,-0.0468586
21.2,-0.0587793
21.25,-0.0716862
21.3,-0.0846477
21.35,-0.0985256
21.4,-0.113761
21.45,-0.127497
21.5,-0.138314
21.55,-0.148093
21.6,-0.161118
21.65,-0.167659
21.7,-0.173432
21.75,-0.182735
21.8,-0.192973
21.85,-0.196844
21.9,-0.203096
21.95,-0.210345
22,-0.216247
22.05,-0.218494
22.1,-0.216232
22.15,-0.215951
22.2,-0.21642
22.25,-0.218362
22.3,-0.223275
22.35,-0.229227
22.4,-0.236991
22.45,-0.239248
22.5,-0.248134
22.55,-0.256383
22.6,-0.267686
22.65,-0.269745
22.7,-0.276966
22.75,-0.285353
22.8,-0.286908
22.85,-0.284189
22.9,-0.282654
22.95,-0.280396
23,-0.274516
23.05,-0.272066
23.1,-0.266905
23.15,-0.261842
23.2,-0.256837
23.25,-0.249576
23.3,-0.249468
23.35,-0.244469
23.4,-0.241912
23.45,-0.238752
23.5,-0.237992
23.55,-0.238214
23.6,-0.240284
23.65,-0.238027
23.7,-0.238479
23.75,-0.243473
23.8,-0.245401
23.85,-0.24887
23.9,-0.252673
23.95,-0.260464
24,-0.268372
24.05,-0.273682
24.1,-0.275041
24.15,-0.269177
24.2,-0.263001
24.25,-0.254185
24.3,-0.250144
24.35,-0.242549
24.4,-0.240827
24.45,-0.232241
24.5,-0.22783
24.55,-0.226349
24.6,-0.222364
24.65,-0.215384
24.7,-0.205073
24.75,-0.20064
24.8,-0.188746
24.85,-0.174083
24.9,-0.153422
24.95,-0.137669
25,-0.125407
25.05,-0.113539
25.1,-0.103168
25.15,-0.09216
25.2,-0.0774255
25.25,-0.0612017
25.3,-0.0507358
25.35,-0.0405031
25.4,-0.029975
25.45,-0.0180276
25.5,-0.00051866
25.55,0.0150093
25.6,0.0332446
25.65,0.0451834
25.7,0.0558276
25.75,0.062354
25.8,0.0706264
25.85,0.0769034
25.9,0.0885967
25.95,0.097843
26,0.107671
26.05,0.115058
26.1,0.122509
26.15,0.133157
26.2,0.145113
26.25,0.154886
26.3,0.163539
26.35,0.174474
26.4,0.186517
26.45,0.195943
26.5,0.207855
26.55,0.21489
26.6,0.222601
26.65,0.228486
26.7,0.237167
26.75,0.243023
26.8,0.252355
26.85,0.262617
26.9,0.276041
26.95,0.289661
27,0.299978
27.05,0.308714
27.1,0.320526
27.15,0.325091
27.2,0.328914
27.25,0.337183
27.3,0.338926
27.35,0.344096
27.4,0.347461
27.45,0.349186
27.5,0.356417
27.55,0.359975
27.6,0.370431
27.65,0.380488
27.7,0.393417
27.75,0.401453
27.8,0.407031
27.85,0.406698
27.9,0.40521
27.95,0.403816
28,0.400196
28.05,0.394763
28.1,0.391591
28.15,0.383088
28.2,0.379431
28.25,0.378446
28.3,0.37389
28.35,0.374076
28.4,0.373305
28.45,0.371458
28.5,0.371384
28.55,0.366366
28.6,0.363361
28.65,0.36174
28.7,0.35984
28.75,0.354793
28.8,0.352391
28.85,0.345763
28.9,0.336552
28.95,0.332556
29,0.327566
29.05,0.325046
29.1,0.318767
29.15,0.313737
29.2,0.30445
29.25,0.301128
29.3,0.290141
29.35,0.278961
29.4,0.263322
29.45,0.252951
29.5,0.238898
29.55,0.224193
29.6,0.212803
29.65,0.202122
29.7,0.190062
29.75,0.181652
29.8,0.175183
29.85,0.16906
29.9,0.160066
29.95,0.154366
30,0.146808
30.05,0.143983
30.1,0.135844
30.15,0.134833
30.2,0.128453
30.25,0.131043
30.3,0.133519
30.35,0.139725
30.4,0.145124
30.45,0.141484
30.5,0.133651
30.55,0.127713
30.6,0.121817
30.65,0.11667
30.7,0.110135
30.75,0.10675
30.8,0.103441
30.85,0.0997331
30.9,0.0939273
30.95,0.0919326
31,0.0888119
31.05,0.0848427
31.1,0.0763792
31.15,0.071379
31.2,0.0543776
31.25,0.0430654
31.3,0.0300619
31.35,0.0142721
31.4,0.000422906
31.45,-0.0205163
31.5,-0.0315961
31.55,-0.0451295
31.6,-0.05538
31.65,-0.0649835
31.7,-0.0714197
31.75,-0.0798409
31.8,-0.088372
31.85,-0.0969515
31.9,-0.114912
31.95,-0.130157
32,-0.148253
32.05,-0.163802
32.1,-0.178057
32.15,-0.191444
32.2,-0.202377
32.25,-0.210513
32.3,-0.218958
32.35,-0.228496
32.4,-0.230449
32.45,-0.237213
32.5,-0.240276
32.55,-0.24637
32.6,-0.254922
32.65,-0.263618
32.7,-0.274403
32.75,-0.287696
32.8,-0.298784
32.85,-0.306895
32.9,-0.322659
32.95,-0.332458
33,-0.34031
33.05,-0.345187
33.1,-0.351299
33.15,-0.363339
33.2,-0.374586
33.25,-0.391001
33.3,-0.40209
33.35,-0.417338
33.4,-0.433383
33.45,-0.452858
33.5,-0.467994
33.55,-0.482124
33.6,-0.494874
33.65,-0.50318
33.7,-0.508796
33.75,-0.511895
33.8,-0.511184
33.85,-0.512314
33.9,-0.516541
33.95,-0.520416
34,-0.524592
34.05,-0.524658
34.1,-0.524454
34.15,-0.523939
34.2,-0.519006
34.25,-0.51738
34.3,-0.513032
34.35,-0.512472
34.4,-0.504672
34.45,-0.502744
34.5,-0.501383
34.55,-0.498002
34.6,-0.496477
34.65,-0.500795
34.7,-0.507871
34.75,-0.510165
34.8,-0.516265
34.85,-0.516213
34.9,-0.51717
34.95,-0.516854
35,-0.515869
35.05,-0.511348
35.1,-0.50407
35.15,-0.494805
35.2,-0.485594
35.25,-0.480584
35.3,-0.478053
35.35,-0.475358
35.4,-0.471208
35.45,-0.46677
35.5,-0.460037
35.55,-0.450096
35.6,-0.439179
35.65,-0.42228
35.7,-0.408244
35.75,-0.38883
35.8,-0.375789
35.85,-0.360287
35.9,-0.349974
35.95,-0.335623
36,-0.326074
36.05,-0.317681
36.1,-0.306947
36.15,-0.300051
36.2,-0.295857
36.25,-0.289124
36.3,-0.27882
36.35,-0.267106
36.4,-0.252729
36.45,-0.233735
36.5,-0.219628
36.55,-0.205338
36.6,-0.19238
36.65,-0.180479
36.7,-0.172401
36.75,-0.160906
36.8,-0.151189
36.85,-0.141327
36.9,-0.137343
36.95,-0.123123
37,-0.11184
37.05,-0.101123
37.1,-0.0865926
37.15,-0.0711076
37.2,-0.0490273
37.25,-0.0320297
37.3,-0.0142548
37.35,0.00368914
37.4,0.0181462
37.45,0.0319426
37.5,0.0467971
37.55,0.0669735
37.6,0.0840218
37.65,0.103948
37.7,0.124032
37.75,0.149085
37.8,0.171275
37.85,0.194345
37.9,0.215257
37.95,0.236625
38,0.252574
38.05,0.266181
38.1,0.28729
38.15,0.306672
38.2,0.325832
38.25,0.343873
38.3,0.36754
38.35,0.387164
38.4,0.412211
38.45,0.441148
38.5,0.465571
38.55,0.488358
38.6,0.508017
38.65,0.530966
38.7,0.550995
38.75,0.571412
38.8,0.590168
38.85,0.60985
38.9,0.625578
38.95,0.640975
39,0.663645
39.05,0.679027
39.1,0.699346
39.15,0.720168
39.2,0.746626
39.25,0.771764
39.3,0.798694
39.35,0.822566
39.4,0.8485
39.45,0.868842
39.5,0.887474
39.55,0.910896
39.6,0.938296
39.65,0.966314
39.7,0.993167
39.75,1.02215
39.8,1.05592
39.85,1.08805
39.9,1.12112
39.95,1.15769
