tau,x
0,0.957075
0.05,1.06499
0.1,1.15472
0.15,1.22158
0.2,1.27482
0.25,1.31882
0.3,1.34869
0.35,1.36447
0.4,1.38026
0.45,1.39657
0.5,1.40418
0.55,1.40399
0.6,1.39807
0.65,1.38869
0.7,1.37525
0.75,1.36199
0.8,1.35087
0.85,1.33326
0.9,1.32076
0.95,1.29623
1,1.28724
1.05,1.26621
1.1,1.24483
1.15,1.21982
1.2,1.2074
1.25,1.18973
1.3,1.15026
1.35,1.1388
1.4,1.12974
1.45,1.1157
1.5,1.08954
1.55,1.07774
1.6,1.06673
1.65,1.05111
1.7,1.05309
1.75,1.05004
1.8,1.02969
1.85,1.02713
1.9,1.03821
1.95,1.01163
2,0.981636
2.05,0.990469
2.1,0.975743
2.15,0.949151
2.2,0.91187
2.25,0.897146
2.3,0.861273
2.35,0.871965
2.4,0.922254
2.45,0.95301
2.5,0.968292
2.55,0.969539
2.6,0.976194
2.65,1.00379
2.7,1.07268
2.75,1.08733
2.8,1.11737
2.85,1.1444
2.9,1.12934
2.95,1.16253
3,1.18249
3.05,1.2053
3.1,1.21079
3.15,1.23722
3.2,1.26064
3.25,1.26583
3.3,1.27839
3.35,1.29953
3.4,1.31546
3.45,1.33081
3.5,1.33852
3.55,1.34925
3.6,1.35778
3.65,1.36103
3.7,1.35776
3.75,1.34652
3.8,1.32417
3.85,1.2997
3.9,1.27901
3.95,1.26486
4,1.24948
4.05,1.22163
4.1,1.20333
4.15,1.17221
4.2,1.1328
4.25,1.11307
4.3,1.10673
4.35,1.09403
4.4,1.07697
4.45,1.07232
4.5,1.06492
4.55,1.04204
4.6,1.05677
4.65,1.08841
4.7,1.0724
4.75,1.08113
4.8,1.11664
4.85,1.13339
4.9,1.13608
4.95,1.15056
5,1.13458
5.05,1.13459
5.1,1.14003
5.15,1.13933
5.2,1.13679
5.25,1.14999
5.3,1.14264
5.35,1.14369
5.4,1.1339
5.45,1.13832
5.5,1.13669
5.55,1.1305
5.6,1.12769
5.65,1.1122
5.7,1.09281
5.75,1.07139
5.8,1.03652
5.85,0.98649
5.9,0.917389
5.95,0.87148
6,0.813231
6.05,0.768363
6.1,0.737875
6.15,0.668833
6.2,0.580146
6.25,0.498381
6.3,0.414323
6.35,0.316248
6.4,0.227015
6.45,0.130044
6.5,0.0305069
6.55,-0.0666077
6.6,-0.178511
6.65,-0.302609
6.7,-0.410452
6.75,-0.510301
6.8,-0.636028
6.85,-0.731638
6.9,-0.800397
6.95,-0.853827
7,-0.908548
7.05,-0.971186
7.1,-1.02928
7.15,-1.07851
7.2,-1.11969
7.25,-1.15772
7.3,-1.16443
7.35,-1.19446
7.4,-1.21892
7.45,-1.24372
7.5,-1.27211
7.55,-1.28697
7.6,-1.31015
7.65,-1.32726
7.7,-1.33425
7.75,-1.34621
7.8,-1.35886
7.85,-1.3652
7.9,-1.36508
7.95,-1.37231
8,-1.368
8.05,-1.3594
8.1,-1.35534
8.15,-1.35076
8.2,-1.34182
8.25,-1.33728
8.3,-1.33077
8.35,-1.31993
8.4,-1.31889
8.45,-1.30605
8.5,-1.29212
8.55,-1.2997
8.6,-1.30499
8.65,-1.29192
8.7,-1.29706
8.75,-1.29913
8.8,-1.30969
8.85,-1.31144
8.9,-1.30988
8.95,-1.31937
9,-1.32378
9.05,-1.32347
9.1,-1.33594
9.15,-1.34324
9.2,-1.34407
9.25,-1.34046
9.3,-1.3511
9.35,-1.36011
9.4,-1.36793
9.45,-1.37564
9.5,-1.3875
9.55,-1.39669
9.6,-1.40269
9.65,-1.40812
9.7,-1.40328
9.75,-1.39308
9.8,-1.38508
9.85,-1.36601
9.9,-1.34658
9.95,-1.32347
10,-1.29362
10.05,-1.26079
10.1,-1.21586
10.15,-1.17087
10.2,-1.12197
10.25,-1.07932
10.3,-1.03958
10.35,-0.987541
10.4,-0.943486
10.45,-0.905447
10.5,-0.897363
10.55,-0.83824
10.6,-0.809795
10.65,-0.793116
10.7,-0.783875
10.75,-0.825316
10.8,-0.849726
10.85,-0.857874
10.9,-0.86463
10.95,-0.884673
11,-0.9145
11.05,-0.969649
11.1,-0.998532
11.15,-1.0483
11.2,-1.07943
11.25,-1.10568
11.3,-1.14097
11.35,-1.17272
11.4,-1.19478
11.45,-1.21081
11.5,-1.24469
11.55,-1.27279
11.6,-1.29177
11.65,-1.302
11.7,-1.32304
11.75,-1.33812
11.8,-1.34618
11.85,-1.3496
11.9,-1.35881
11.95,-1.36177
12,-1.36459
12.05,-1.36351
12.1,-1.36894
12.15,-1.36971
12.2,-1.37152
12.25,-1.37186
12.3,-1.37379
12.35,-1.38021
12.4,-1.38474
12.45,-1.39219
12.5,-1.4004
12.55,-1.40964
12.6,-1.41899
12.65,-1.42198
12.7,-1.42886
12.75,-1.43023
12.8,-1.43213
12.85,-1.43493
12.9,-1.4372
12.95,-1.43249
13,-1.43601
13.05,-1.42497
13.1,-1.40823
13.15,-1.39143
13.2,-1.37398
13.25,-1.35799
13.3,-1.33864
13.35,-1.32354
13.4,-1.29761
13.45,-1.26788
13.5,-1.25021
13.55,-1.22539
13.6,-1.18926
13.65,-1.15936
13.7,-1.12701
13.75,-1.07634
13.8,-1.02005
13.85,-0.968198
13.9,-0.917413
13.95,-0.890126
14,-0.83531
14.05,-0.780221
14.1,-0.68278
14.15,-0.615
14.2,-0.532439
14.25,-0.439166
14.3,-0.373499
14.35,-0.293582
14.4,-0.230535
14.45,-0.156591
14.5,-0.102379
14.55,-0.0598143
14.6,-0.00986746
14.65,0.0131143
14.7,0.0298097
14.75,0.0396538
14.8,0.0239063
14.85,-4.43278e-05
14.9,-0.0240088
14.95,-0.047342
15,-0.0952578
15.05,-0.156149
15.1,-0.22894
15.15,-0.308711
15.2,-0.398705
15.25,-0.494997
15.3,-0.572769
15.35,-0.663688
15.4,-0.735197
15.45,-0.832998
15.5,-0.911988
15.55,-0.998454
15.6,-1.04885
15.65,-1.08833
15.7,-1.13933
15.75,-1.17141
15.8,-1.19592
15.85,-1.22383
15.9,-1.25221
15.95,-1.27196
16,-1.28661
16.05,-1.29285
16.1,-1.29119
16.15,-1.28415
16.2,-1.27667
16.25,-1.26295
16.3,-1.25174
16.35,-1.23492
16.4,-1.22703
16.45,-1.20982
16.5,-1.20227
16.55,-1.21015
16.6,-1.18223
16.65,-1.17023
16.7,-1.14086
16.75,-1.16489
16.8,-1.15583
16.85,-1.14404
16.9,-1.12411
16.95,-1.14746
17,-1.12785
17.05,-1.14142
17.1,-1.17064
17.15,-1.17406
17.2,-1.20055
17.25,-1.2329
17.3,-1.24213
17.35,-1.26683
17.4,-1.29084
17.45,-1.31512
17.5,-1.32916
17.55,-1.34811
17.6,-1.36091
17.65,-1.36826
17.7,-1.37274
17.75,-1.38108
17.8,-1.38146
17.85,-1.37677
17.9,-1.37642
17.95,-1.37582
18,-1.36863
18.05,-1.36951
18.1,-1.3703
18.15,-1.3679
18.2,-1.37611
18.25,-1.37396
18.3,-1.38382
18.35,-1.39468
18.4,-1.40342
18.45,-1.41599
18.5,-1.42945
18.55,-1.44332
18.6,-1.44245
18.65,-1.44692
18.7,-1.45049
18.75,-1.45162
18.8,-1.45778
18.85,-1.4629
18.9,-1.45958
18.95,-1.46245
19,-1.46769
19.05,-1.46071
19.1,-1.45709
19.15,-1.44619
19.2,-1.44314
19.25,-1.43338
19.3,-1.43252
19.35,-1.42778
19.4,-1.42409
19.45,-1.41258
19.5,-1.40018
19.55,-1.38876
19.6,-1.38403
19.65,-1.37412
19.7,-1.3695
19.75,-1.36083
19.8,-1.35587
19.85,-1.35983
19.9,-1.36277
19.95,-1.3618
20,-1.36863
20.05,-1.373
20.1,-1.38109
20.15,-1.38439
20.2,-1.39459
20.25,-1.38977
20.3,-1.38633
20.35,-1.38276
20.4,-1.37223
20.45,-1.36743
20.5,-1.34364
20.55,-1.31322
20.6,-1.26758
20.65,-1.20769
20.7,-1.13393
20.75,-1.04191
20.8,-0.928873
20.85,-0.789537
20.9,-0.617121
20.95,-0.426767
21,-0.218918
21.05,-0.00316469
21.1,0.20685
21.15,0.40094
21.2,0.578212
21.25,0.725827
21.3,0.844192
21.35,0.93842
21.4,1.00858
21.45,1.06367
21.5,1.10385
21.55,1.12396
21.6,1.14322
21.65,1.16365
21.7,1.16914
21.75,1.17808
21.8,1.17364
21.85,1.171
21.9,1.16409
21.95,1.13988
22,1.12171
22.05,1.09625
22.1,1.05315
22.15,1.00186
22.2,0.931279
22.25,0.839365
22.3,0.72438
22.35,0.586817
22.4,0.424835
22.45,0.247251
22.5,0.0515977
22.55,-0.148113
22.6,-0.341835
22.65,-0.537104
22.7,-0.709657
22.75,-0.862057
22.8,-0.987312
22.85,-1.09213
22.9,-1.17455
22.95,-1.24375
23,-1.28913
23.05,-1.32327
23.1,-1.34822
23.15,-1.36179
23.2,-1.37251
23.25,-1.37953
23.3,-1.38375
23.35,-1.38386
23.4,-1.38249
23.45,-1.37461
23.5,-1.36681
23.55,-1.35883
23.6,-1.34691
23.65,-1.33326
23.7,-1.32137
23.75,-1.30901
23.8,-1.29664
23.85,-1.27423
23.9,-1.25366
23.95,-1.22953
24,-1.19369
24.05,-1.16673
24.1,-1.1327
24.15,-1.09753
24.2,-1.03509
24.25,-0.964871
24.3,-0.878741
24.35,-0.791451
24.4,-0.678824
24.45,-0.55496
24.5,-0.420036
24.55,-0.268718
24.6,-0.115095
24.65,0.0420646
24.7,0.202349
24.75,0.357076
24.8,0.498198
24.85,0.623378
24.9,0.729319
24.95,0.812529
25,0.882238
25.05,0.935732
25.1,0.980298
25.15,1.01559
25.2,1.05509
25.25,1.07205
25.3,1.10387
25.35,1.11143
25.4,1.12454
25.45,1.12089
25.5,1.12153
25.55,1.14423
25.6,1.16087
25.65,1.1808
25.7,1.15225
25.75,1.1596
25.8,1.16078
25.85,1.17867
25.9,1.18041
25.95,1.20572
26,1.22072
26.05,1.22284
26.1,1.22799
26.15,1.23874
26.2,1.23941
26.25,1.22764
26.3,1.22711
26.35,1.22275
26.4,1.21217
26.45,1.20435
26.5,1.19465
26.55,1.17406
26.6,1.14144
26.65,1.09894
26.7,1.04699
26.75,0.986989
26.8,0.937529
26.85,0.868271
26.9,0.789673
26.95,0.69967
27,0.657559
27.05,0.570166
27.1,0.441505
27.15,0.355178
27.2,0.273266
27.25,0.175814
27.3,0.105826
27.35,0.0182467
27.4,-0.0495377
27.45,-0.12332
27.5,-0.205908
27.55,-0.286641
27.6,-0.393374
27.65,-0.495505
27.7,-0.580701
27.75,-0.654299
27.8,-0.739761
27.85,-0.83308
27.9,-0.909588
27.95,-0.95612
28,-1.01142
28.05,-1.04535
28.1,-1.10674
28.15,-1.14145
28.2,-1.17617
28.25,-1.22009
28.3,-1.25329
28.35,-1.28914
28.4,-1.31738
28.45,-1.34441
28.5,-1.36331
28.55,-1.38401
28.6,-1.39941
28.65,-1.40789
28.7,-1.4154
28.75,-1.41849
28.8,-1.42132
28.85,-1.4263
28.9,-1.42891
28.95,-1.42776
29,-1.42604
29.05,-1.42512
29.1,-1.42342
29.15,-1.41605
29.2,-1.41057
29.25,-1.39731
29.3,-1.38238
29.35,-1.36525
29.4,-1.34966
29.45,-1.34167
29.5,-1.32976
29.55,-1.31338
29.6,-1.29526
29.65,-1.27669
29.7,-1.27291
29.75,-1.26447
29.8,-1.25646
29.85,-1.24239
29.9,-1.21602
29.95,-1.20495
30,-1.20905
30.05,-1.17847
30.1,-1.1533
30.15,-1.11673
30.2,-1.10151
30.25,-1.09935
30.3,-1.11492
30.35,-1.12957
30.4,-1.10675
30.45,-1.10111
30.5,-1.08994
30.55,-1.07784
30.6,-1.07787
30.65,-1.07867
30.7,-1.08376
30.75,-1.08999
30.8,-1.09388
30.85,-1.1095
30.9,-1.13528
30.95,-1.14824
31,-1.14384
31.05,-1.15786
31.1,-1.16049
31.15,-1.16678
31.2,-1.17129
31.25,-1.17065
31.3,-1.16834
31.35,-1.16153
31.4,-1.16141
31.45,-1.1427
31.5,-1.14018
31.55,-1.15552
31.6,-1.17339
31.65,-1.17937
31.7,-1.18479
31.75,-1.19295
31.8,-1.20883
31.85,-1.19055
31.9,-1.21249
31.95,-1.20248
32,-1.21512
32.05,-1.22753
32.1,-1.24018
32.15,-1.248
32.2,-1.24687
32.25,-1.25417
32.3,-1.25068
32.35,-1.25992
32.4,-1.26645
32.45,-1.26672
32.5,-1.2761
32.55,-1.2842
32.6,-1.276
32.65,-1.27634
32.7,-1.2782
32.75,-1.26661
32.8,-1.26433
32.85,-1.26327
32.9,-1.26635
32.95,-1.2754
33,-1.29075
33.05,-1.27915
33.1,-1.29042
33.15,-1.294
33.2,-1.29544
33.25,-1.29835
33.3,-1.30245
33.35,-1.3173
33.4,-1.33678
33.45,-1.34866
33.5,-1.35391
33.55,-1.36429
33.6,-1.37618
33.65,-1.3827
33.7,-1.39392
33.75,-1.40208
33.8,-1.40926
33.85,-1.41327
33.9,-1.41541
33.95,-1.41421
34,-1.41348
34.05,-1.41296
34.1,-1.41049
34.15,-1.40661
34.2,-1.40035
34.25,-1.39489
34.3,-1.39344
34.35,-1.39014
34.4,-1.39156
34.45,-1.39625
34.5,-1.39602
34.55,-1.40078
34.6,-1.40417
34.65,-1.40755
34.7,-1.41341
34.75,-1.41494
34.8,-1.4193
34.85,-1.4212
34.9,-1.42565
34.95,-1.42532
35,-1.42169
35.05,-1.41395
35.1,-1.40441
35.15,-1.39253
35.2,-1.38104
35.25,-1.36557
35.3,-1.35994
35.35,-1.35065
35.4,-1.34522
35.45,-1.34038
35.5,-1.33496
35.55,-1.33582
35.6,-1.33174
35.65,-1.32558
35.7,-1.32276
35.75,-1.33039
35.8,-1.33802
35.85,-1.34629
35.9,-1.35
35.95,-1.35723
36,-1.35805
36.05,-1.36383
36.1,-1.36882
36.15,-1.37335
36.2,-1.37355
36.25,-1.37066
36.3,-1.36517
36.35,-1.35976
36.4,-1.35463
36.45,-1.35254
36.5,-1.34629
36.55,-1.33739
36.6,-1.32614
36.65,-1.31765
36.7,-1.30966
36.75,-1.31108
36.8,-1.30727
36.85,-1.29827
36.9,-1.2897
36.95,-1.28014
37,-1.2845
37.05,-1.28983
37.1,-1.28418
37.15,-1.27826
37.2,-1.28382
37.25,-1.28454
37.3,-1.28115
37.35,-1.2791
37.4,-1.27919
37.45,-1.27191
37.5,-1.27296
37.55,-1.2793
37.6,-1.26571
37.65,-1.2649
37.7,-1.27214
37.75,-1.27346
37.8,-1.28201
37.85,-1.28008
37.9,-1.29231
37.95,-1.29393
38,-1.29392
38.05,-1.30487
38.1,-1.31544
38.15,-1.32797
38.2,-1.3451
38.25,-1.35298
38.3,-1.36507
38.35,-1.37981
38.4,-1.39314
38.45,-1.40468
38.5,-1.41807
38.55,-1.42121
38.6,-1.42447
38.65,-1.41829
38.7,-1.41182
38.75,-1.40255
38.8,-1.3905
38.85,-1.37706
38.9,-1.36364
38.95,-1.34786
39,-1.31868
39.05,-1.29717
39.1,-1.26757
39.15,-1.24125
39.2,-1.20363
39.25,-1.1497
39.3,-1.09404
39.35,-1.02597
39.4,-0.942699
39.45,-0.845581
39.5,-0.730619
39.55,-0.593525
39.6,-0.437334
39.65,-0.260755
39.7,-0.0760206
39.75,0.123121
39.8,0.318735
39.85,0.501617
39.9,0.678742
39.95,0.826435
